ECG
-0.06901441146307151
0.04772048706598299
0.008593046844766708
0.09570334319025167
0.17921503434981612
0.07074517268142219
0.1233007890094136
0.11798708731899513
0.16561060292830004
0.1739933934961495
0.024908705381075896
0.23791823029227113
0.4420990475212137
0.3423315174941413
0.15760383973654304
0.3060298127995009
0.36610214438195304
0.3962722306800596
0.26105170914981446
0.5698914510648356
0.526705970569075
0.3941603350791256
0.5044798792511931
0.5788755312415202
0.5611459140334102
0.639576251707487
0.5807217687916826
0.6901477963718532
0.5314178964634597
0.4113282499854124
0.5831719754275041
0.46747314504550413
0.7137569188868061
0.5671693146648272
0.6528716678726337
0.6677760060199095
0.5697108188076848
0.7386910580629986
0.4795373968448774
0.5238926375514931
0.7936715765084075
0.6911291165552407
0.6739440299996846
0.6918697225897772
0.7603164782368204
0.6050527536397121
0.4485164271156744
0.8120183501795795
0.7253233753938259
0.6775428788525277
0.6638353804852767
0.7618177433483224
0.7003551031450014
0.7064830806363557
0.7308440119847907
0.7744568949268978
0.49624793026028274
0.650697710109308
0.6474439931029597
0.6533461999591641
0.5094853075582572
0.7433709278242613
0.6622149439729786
0.5975920654323483
0.8525101469822132
0.5364656783308552
0.5845144646273441
0.7659978159233374
0.6463774962112839
0.5840179756830374
0.6822113455868577
0.4209157272637415
0.5375981852147005
0.44420890549872605
0.5638880820003149
0.5555116296732983
0.453706329259783
0.5636798932597704
0.4281686431374005
0.6305742998923627
0.29855372904003685
0.39694616740473754
0.3662529846374586
0.7132275459365915
0.24524670557655617
0.4228329355271635
0.4448828839353794
0.4338751921411689
0.6652880662717241
0.5052732236300859
0.37870152228862125
0.30334426431346917
0.22709860534551013
0.46144887447444527
0.3945598943376327
0.229491402420806
0.33091176145718276
0.08754589326419265
0.35598819712690416
0.3703703111864309
0.143379293728515
0.45946483797589865
0.4948979415959246
0.03459729230572056
0.05876759825842959
0.39021698412233863
0.3232986848333367
0.23195763232145317
0.35736412501923703
0.2344341629286582
0.4996293033867978
0.2616498336667796
0.21629037938775716
0.273194372555697
0.35802970890883823
0.21608424951443167
0.34008692006730923
0.3468750316585535
0.31303298171634375
0.13161681709649167
0.1872125556170172
0.11025650876324503
-0.05386571219899944
0.019612142116494632
0.056072295687801164
0.00624984670968709
0.1278133866082165
0.023984477782828556
0.09703353927898468
-0.11223706721824153
-0.028268533974127583
0.013745232222412501
0.12878350399674027
0.01449202732493634
0.19704358197106445
-0.020832391234207798
-0.03528644233210464
0.14556050591637287
0.21416911457598908
0.03385782721492823
0.14124401842335793
-0.051786230566614945
0.150107656467416
0.09062843556421898
-0.1533274363512284
-0.024462004449031356
-0.004764503030379556
-0.23819227867294754
-0.05824557750879787
-0.18745908322224333
-0.031312498155763833
0.027306801177357246
0.0725589997951439
0.14551199387090163
-0.08202738400541296
0.008356248845494518
-0.05796244922350895
-0.000662692841968994
0.009715580770948681
-0.11670726761572772
-0.10140695503611434
-0.0014058894881396472
-0.2657340262567952
-0.06505819448103631
-0.1889044331984878
-0.21777923551018613
-0.09320866263578798
-0.0356361345991541
0.009503953182820962
-0.08809273268818416
-0.19507591919240297
-0.36071458901015324
-0.19287457896283222
-0.14102473130753526
-0.1901448097137818
0.0045879462206294686
-0.18236889331868805
0.06054257392340018
-0.1338952953670282
-0.2639802470270975
-0.29881520354542057
-0.31573631200395946
-0.33276798830135884
-0.14781555333731128
-0.37879599647915246
-0.43003761771857496
-0.36395168413382173
-0.17079756558390768
-0.39076224957984346
-0.5092288617603846
-0.27136222011173045
-0.2914214439927955
-0.40657256913848194
-0.5065347878057549
-0.39245500204844924
-0.48177413128473706
-0.3242997523066755
-0.4661357369337995
-0.5304234133706968
-0.49920005026969066
-0.3536688372439313
-0.40510216029176893
-0.47813126046315224
-0.5481128725704082
-0.6397509625822728
-0.4969548993202965
-0.5399520687169092
-0.5441108996500188
-0.5949635436100194
-0.47314650751222714
-0.4793147100322537
-0.7006713442972818
-0.4694825126051084
-0.6586334848335853
-0.7243089762498103
-0.7624347695494021
-0.5781729235186663
-0.547692529990567
-0.5662891485290223
-0.6481032538405493
-0.7380949466373753
-0.7186393965671707
-0.7627965864553568
-0.5525385968165607
-0.7233024301370672
-0.5326008671708009
-0.6904694987175827
-0.8330484748171185
-0.5390948610843106
-0.7721060772143357
-0.5941644843959704
-0.7767859052772683
-0.5088489977666643
-0.5986482462500411
-0.646733001921323
-0.7020912257820086
-0.7744554955242315
-0.665175936540687
-0.6231627823405991
-0.7963343570810496
-0.7814519097556143
-0.6172616974988647
-0.7872988355505866
-0.7645924680116576
-0.5317132641080881
-0.7717507904336169
-0.5924212505516429
-0.6581403234754449
-0.7500271437533841
-0.6683384672360139
-0.7121602113345813
-0.7103482215622432
-0.6049174079215672
-0.5777795369285585
-0.5416504092664223
-0.6088464067108186
-0.5953178314976753
-0.5199647033900736
-0.5238404262589224
-0.5434422859996726
-0.5072900605629875
-0.4753460215343705
-0.35581138562227166
-0.42482550973963773
-0.5681358745819736
-0.29489028995381383
-0.3757224366234856
-0.4431905709713615
-0.5901183514108087
-0.43474531858087656
-0.5086523783121848
-0.2857775605617395
-0.39155101078620624
-0.2634976753329329
-0.2693306643691913
-0.18748990145596456
-0.13786389133312416
-0.2360772322033931
-0.13280819472520886
-0.17231578308453227
-0.07848592249849101
-0.19506030715048012
-0.19961669257463538
-0.16043397241113894
-0.018777045230554595
-0.13911214285379958
-0.03620339740730886
0.1643833333419777
0.09102231695087278
-0.0443775652194067
0.09862044329835974
0.13273670897047204
-0.005088464121541014
0.17562042271843092
0.058565881591777905
0.11839820503912103
0.03855227661113719
0.27987188160578225
0.13846467054813538
0.3993891647564277
0.3749630449041848
0.3749856959767103
0.39904757912768396
0.36333045747148696
0.3742707376587138
0.512012932980471
0.3381699372122557
0.4350713231269528
0.40579065956116095
0.5932884865314457
0.3616291210265673
0.6111056064952877
0.6235524282846194
0.7125426580324428
0.7037944357170598
0.5054381252461951
0.4700237171325492
0.4711328177181252
0.466916310920412
0.6004497038958074
0.45703135463924865
0.6650190622049621
0.4820598214273318
0.5259381343779344
0.674336509867043
0.5523555842361467
0.592262409800242
0.680209939552348
0.49186820933245945
0.7207603924219597
0.641265198210726
0.805242860690065
0.7578900503940365
0.7779943313638289
0.5851465495038413
0.8108460788499051
0.7013774175249234
0.6696536946987579
0.5063464945326958
0.8057817915244673
0.48472537048700354
0.5701499501211119
0.797491978703367
0.6367749644348506
0.6772615770309157
0.6212690102191765
0.6608828779040323
0.559633458167503
0.5981511208003767
0.6251978103572117
0.5464878784655345
0.4875131189171211
0.5915769759780772
0.7871075603490908
0.6632115746762565
0.8740959126285965
0.5412850037542728
0.5969873997164709
0.5318656837602471
0.49989561204456623
0.5390358343986509
0.7446148844855769
0.6695030308521395
0.613424864365837
0.5974024715837403
0.6279440639410663
0.6059126304215162
0.7325847448510173
0.5427852553458222
0.496277327587844
0.5023089411866495
0.44134603076103157
0.49043293079105593
0.4592446411890914
0.5554506791277749
0.6019803636123706
0.3822184912337042
0.3474042092671487
0.64413564287926
0.4145813827267458
0.27121882522066476
0.31024280600341586
0.263462489799556
0.3667873942236523
0.2900773743721065
0.4516743277350438
0.7067209988416495
0.3756920194170187
0.34385519627281635
0.2574479668183511
0.39707500906315807
0.25332404766726724
0.2740999687161688
0.2436817712130025
0.2828567548282916
0.28563379516780774
0.2857077759989608
0.1778984505066735
0.06881668208022806
0.12275458656051083
0.14314194560497073
0.1917006541963867
0.09981872105840998
0.211112343762083
0.2504672718544695
0.14713384949516387
0.21461350751873937
0.1621442342984567
0.07892817131487916
0.19850840131168368
0.2486088736455043
0.14061460938084452
-0.010213109383614624
0.031031264800330832
0.0978734062242163
0.10471064498529138
-0.05231086600862761
-0.052640395500307774
0.07912241414614073
0.13443094100765784
0.06853271514304576
0.14112663909862008
0.11611550448916717
0.2398552737821971
0.01711228668719024
0.004283719365150568
0.1474578756244361
0.10736332551822264
0.038359177404647865
-0.11472381345897134
-0.010532367898433669
0.024481521269904542
0.09696196979877234
-0.10913001613565118
-0.10676954592198351
-0.08601592830826796
-0.15381965300120856
0.005656361110765791
0.12732135041619438
0.020785403068017544
-0.17100505629484677
-0.10976976326343939
0.12288867066104012
-0.10611475514357385
-0.1794988071861242
-0.10290552114813477
0.023885920114743817
-0.1385992350250869
-0.1940853738034612
0.037386846968093815
-0.016972929614033017
0.033729070270662326
-0.1962452866547424
-0.11339123146616849
-0.26017361211164236
-0.218362548953354
-0.16338546502061618
-0.012252655893402215
-0.19912444486363004
-0.10489071281437318
-0.37218890406353533
-0.12105428405076371
-0.11152680480135985
-0.25219143468825034
-0.10152695572644699
-0.1379386317390589
-0.24863180947679187
-0.30678530653115466
-0.198545344337991
-0.21634790338354534
-0.4962253178417974
-0.3151468301027689
-0.31013527169178723
-0.29732024635010484
-0.17084363709776756
-0.35740510461373814
-0.4423676014332458
-0.1788694724732677
-0.28893350629409653
-0.34372513549514655
-0.5541252594470409
-0.32143550440075486
-0.31971199706520015
-0.3705492834382332
-0.4374553853608417
-0.34867303329732685
-0.40919185636625643
-0.5280681065286684
-0.4151743736760538
-0.5004944285970897
-0.5064731195014159
-0.3850733977963319
-0.5771633555808144
-0.4519675208798858
-0.5791632475027204
-0.4403899021662604
-0.4747900660114145
-0.6743489991356346
-0.6283131816266881
-0.5017585130614195
-0.568801982833768
-0.5988150824644304
-0.6656962057595956
-0.5994462750816772
-0.5367994825491559
-0.7387563593222213
-0.3940053190266338
-0.6049814570481443
-0.4501818630577631
-0.6564438287787393
-0.5193739292308566
-0.5846559310268473
-0.5702865161143649
-0.8161467130486049
-0.7075012007013811
-0.6115864881180652
-0.7453733091768924
-0.6379363357026813
-0.706948480026344
-0.7602785351249531
-0.5030258016112135
-0.7755190240871006
-0.6430321759808754
-0.8836611175224082
-0.7417980641641593
-0.8397631200193889
-0.5904520851704729
-0.8489903095107113
-0.7750110951806157
-0.8129422190131109
-0.9506289139425106
-0.6334965108294905
-0.50379417156317
-0.7067585730785102
-0.7065296924428555
-0.8271424614340237
-0.6289585866697334
-0.7724138264690809
-0.77177365019289
-0.7350372650808399
-0.7411601615517188
-0.7794726850944894
-0.5915840294965461
-0.7499309742602605
-0.6159833692221091
-0.5843083695998983
-0.6433768940770328
-0.5922658740978725
-0.19194140800524861
-0.44122096794424454
-0.4138553747874515
-0.35052871747770953
-0.5894638341399799
-0.5935948470292709
-0.6372968104595125
-0.34127357707764466
-0.36337977796675214
-0.5319239831531539
-0.23763961069369857
-0.1982825395010321
-0.35398482655234653
-0.33315593233340013
-0.3042889678609146
-0.16071396857263115
-0.3363926615957581
-0.13062612694444475
-0.24258609123242542
-0.23883611715554307
-0.27231899032527435
-0.3214898714050023
0.11484108241749277
0.021284903492055085
-0.25587651893110297
-0.1254912961831147
0.09457252522096277
-0.11400888556668354
0.11890173465946845
0.0385104274824042
0.024980802643486958
0.20268151273768242
0.14066460370832815
0.13838003235055382
0.24232644598696532
0.040061489105025716
0.26901883505348667
0.19210846346243607
0.17834794457722447
0.191252026453842
0.11416608362768402
0.3393779967923333
0.35727486381784856
0.1227267773180033
0.2450660108935378
0.2945262112896024
0.37768171311990234
0.4372979002858744
0.4701724911041282
0.5033520031301899
0.5673610338958658
0.2542945981735774
0.37765092043208237
0.5444055220001479
0.5928514409390393
0.5559144288263314
0.5889809265559266
0.5612294772385028
0.5728823133777184
0.5693110305767919
0.4618840782808101
0.6310857455236774
0.5834798205231013
0.6870942132998372
0.7622639474552817
0.5886592899246981
0.6603150734438398
0.8415663405958893
0.557013343325772
0.7460812356208981
0.755829528400728
0.7286259639203296
0.4647770296295416
0.526297023613518
0.8669678960853798
0.7130804246476807
0.567612687992569
0.6501897641270105
0.6939462207281362
0.7417398404476839
0.6449493978502002
0.6555224966270919
0.5273309337782635
0.8180464347628966
0.6713738851696817
0.6792928408573485
0.7292978547569355
0.7459927515743198
0.779568706873677
0.8390507595055999
0.5427314659627325
0.7257531423243957
0.7705957560063742
0.5973281432095681
0.6913674508585212
0.6522639324516482
0.5828716984845781
0.5292240791199929
0.5946673938127002
0.44218197225191147
0.755942917830932
0.7385881182745461
0.4782612442777767
0.7431742431804447
0.6026349600622859
0.6158964487453464
0.5507541696411462
0.4371087815494341
0.37326720899591204
0.4354364610588811
0.5898932839062698
0.41167787752214374
0.6053405162685486
0.537680473192986
0.39780744209742136
0.2794359234657015
0.3583333427073561
0.14118996741581585
0.34870294685490266
0.37892383221933457
0.29096037899986904
0.4588007579925398
0.24315798738731836
0.3114286077153646
0.5471063940848462
0.38144233426932184
0.17097501634319456
0.15835454679364344
0.32553696584824027
0.22233724196395258
0.16019281458632378
0.41421388745598847
0.09362289770191776
0.1934142235856962
0.21291643368202284
0.2169821741317379
0.3426469794972236
0.2426669025496089
0.2039656382684154
0.020630219951351447
0.3504027426618701
0.333701221129741
0.11895046690922872
0.20654875679921167
0.1368742396726208
0.03207912013382981
0.058720673974600235
0.2624992071928921
0.17548980112656604
0.09184006965505602
-0.1629453884581761
0.06518793799296191
0.2767671809376292
-0.011845273194837622
0.18915666839050516
0.10447990139460386
-0.0577746123466884
-0.19790962046263746
0.026172951420918328
-0.038393097216326
0.017342090514532442
0.05631517425161034
-0.0708117171920546
0.004126570658890286
0.26746195753417285
-0.04851015498243095
-0.0443711030498221
-0.12220129174138382
0.13571232046439383
-0.0034630720769946964
-0.15581691557419458
-0.05320649878928081
-0.12540912541370766
-0.07017124016277197
-0.006658515711414577
-0.10421539126431845
0.015359885909028703
-0.14980498687490965
-0.013298130520414736
0.008530199559996204
-0.03330327856226389
0.041854812830523835
-0.03939860691896183
0.04999916727715424
-0.18527387496352013
0.018126314079622077
0.013962162483346197
0.029025777042539183
-0.23175953539908842
-0.11178199483918289
-0.0966821749296666
0.03993118069011456
-0.27218384000697526
-0.25600416482676014
-0.2632602968746941
-0.10115213513849479
0.03934763586040124
-0.13025171836551247
-0.11097250182123364
0.012732482669543105
-0.15620920141763017
-0.23024215456611824
-0.25582451359606545
-0.10833330806176145
-0.3957984899962077
-0.3087627394703911
-0.16082428855649372
-0.24495769722121394
-0.3673908527354719
-0.1785668914863089
-0.18341974694033755
-0.160234859516795
-0.29884729603426413
-0.2389858815068045
-0.189291636127934
-0.34250309594608586
-0.34261875603775044
-0.4024858753873789
-0.28860803276171254
-0.43544206779387884
-0.2549237121722134
-0.39841498219429844
-0.32238305178936844
-0.3892553981652723
-0.17956896742269216
-0.4177468083242161
-0.5594540532440861
-0.45304785727790325
-0.3158065541439666
-0.5231321911835635
-0.45864406616601533
-0.5576482775069055
-0.5396265578292613
-0.5292968649503811
-0.4672641260517897
-0.48848294216416666
-0.5561235211690974
-0.30087183500795234
-0.597898048939882
-0.3514996520130643
-0.3413094571805937
-0.7817263512423785
-0.4373223334428609
-0.8388292138490075
-0.5941152832578608
-0.5298121398454166
-0.5813508368550697
-0.7005327092574186
-0.6401667989875225
-0.6556764949892462
-0.5390648962766953
-0.6936215577825499
-0.5096674568409507
-0.6299335422765213
-0.5372983658257114
-0.6466355863272074
-0.7816906775870087
-0.7081546656442127
-0.564386933548074
-0.6060906965946671
-0.5088393867812111
-0.7007943735085317
-0.7110271858416404
-0.6462198103141357
-0.6695164759367452
-0.7011090948597923
-0.6374764260554051
-0.8467588802144034
-0.7467309417623362
-0.6634133661126832
-0.5717163282668966
-0.6610012569037893
-0.8322978897672358
-0.5150657483718841
-0.8416591098254377
-0.7067326933492434
-0.74580181107222
-0.6684665567823943
-0.6313551015660632
-0.6226093830897207
-0.4477535365268238
-0.5482930643195779
-0.5601441590719953
-0.4874416718460265
-0.5588554106147379
-0.676310364769203
-0.4774140519768127
-0.4167148499301672
-0.5535449245221821
-0.5083014610787913
-0.3868879346545333
-0.5893627860504514
-0.33684240852046565
-0.5712391282812239
-0.4141405069478867
-0.46593672025689814
-0.4415484676090474
-0.561841276115276
-0.14014499240078834
-0.2678748413443314
-0.2574363424978827
-0.20408987322810063
-0.3878789914932384
-0.20325715385668391
-0.22964154352679877
-0.38339517929297084
-0.32538212643786124
-0.16941921067792667
-0.1369589545126014
-0.08200829176377049
-0.00029674305037655224
-0.019746023442857377
-0.11401919729189774
-0.1748908449507091
-0.12057738187344028
-0.1026857536559838
0.02716277411231059
0.01070237630203769
0.15394450580843297
0.08560426856828518
0.1718347651168032
-0.0580073528461096
0.12195892579444181
0.16289740626881374
0.1879998246397943
0.021305294829266547
0.15747687174073605
0.2826829527904156
0.3914613091901368
0.1512891844500181
0.4507052009753448
0.3520659205874829
0.3067673742776097
0.37508975770605246
0.2647558574597096
0.4840800965191439
0.46742991151073354
0.38249812733748745
0.4635432243179737
0.5050266020846862
0.3978784998119446
0.49142600226813693
0.5654626598755644
0.5475074978569251
0.4127752205139502
0.5023706354613139
0.5932933288493111
0.637040189290086
0.746582820383442
0.5408735763062302
0.591628381101474
0.43321714681040124
0.7215937639578877
0.6875373652441684
0.7210384601316958
0.5607526622500195
0.7289680960751104
0.7055390336035783
0.5949374732108903
0.7199731938433608
0.7378963063110433
0.7475784001541781
0.5701962001449977
0.7699142378706173
0.6074602868218801
0.726439469845083
0.7098756945534973
0.6061335257416567
0.7627667732712194
0.7634541690384132
0.6489113012950145
0.4546727197802165
0.667151135234851
0.6930576498502425
0.6194620087390792
0.5037052652510513
0.6358271405271038
0.6744325252695628
0.5093164288928052
0.5283556624421335
0.7617233205569972
0.5984782831636485
0.7531329106217848
0.4886013215976077
0.6115683924825185
0.5165589254452893
0.5990314436975842
0.6712891993748666
0.47476756042364326
0.7677644190736015
0.5483538610453782
0.590209494597558
0.8143754037821873
0.5494961732082385
0.44569863705386514
0.5240709851975521
0.48316345923677967
0.5774395556372758
0.5082618628331568
0.48699867179966155
0.45834733898970065
0.39121238955295556
0.48300134013579665
0.4865137735801206
0.42551089408403303
0.37700093843796506
0.3818040376037968
0.552555903429143
0.39405974486744383
0.16710383336521833
0.4727099012632764
0.402271175981964
0.32064577357380014
0.2857941948240233
0.38650550419022117
0.41807307165022745
0.23311243991216757
0.30656274977987275
0.28327252529056657
0.15477778541460818
0.2759445995015529
0.332081840982207
0.27018073319813507
0.34976990533504837
0.22191905126867006
0.07572827138515342
0.012029295732322948
-0.01600736254788762
0.2196593135575332
0.1396447866064349
0.02312163342600501
0.23622330699295907
0.2151650047885727
0.16409250302253153
0.28809703208596926
-0.050408318189739315
-0.012575131354192554
0.290170486888078
0.1501209407257268
0.0921475697068959
0.19021984953038784
0.0029804537749174576
0.11227853050472239
0.1413178127229171
0.100466929561667
0.21366979789089108
0.10214657542869651
0.07290982098101872
-0.01982967881776644
-0.10617681406881295
-0.23391439938434316
-0.07243834331511198
0.04800816499204562
0.15285192166149855
-0.08314332968931668
-0.046027254520321054
0.14467058935521873
-0.0595784675080622
-0.052929393029646526
-0.009069784402785906
0.16994471012329695
0.13394111745782658
0.05998471683341036
5.247283972412836e-05
-0.0853533119673343
0.0016189316542285954
-0.034585192641685636
0.05588143954868464
-0.16801367114746232
0.10669309989700636
-0.008524928463734219
-0.12335397955571943
0.023041723864571803
-0.23242099463589744
-0.002867548273339751
-0.054299381560460006
-0.06869348972925238
-0.2567266530190587
0.0301725901777386
-0.2419484758528706
-0.07233918124963402
-0.09756203081268872
-0.1992231195752559
-0.4055784331003135
-0.09948928930680823
-0.141429614132935
-0.20499212948535353
-0.1983859054524546
-0.10763021113683052
-0.19037338344991675
-0.04196286572731206
-0.24600982689521392
-0.04367092765013289
-0.10382028453951937
-0.31784971566645126
-0.23854364794680794
-0.291781155596757
-0.13076617693016274
-0.2149569036443871
-0.2884554777119174
-0.2593696638689896
-0.1738944483545552
-0.3366885157643337
-0.27031744775257455
-0.3460815456742898
-0.21378357453815916
-0.22729046369976785
-0.39385403838497074
-0.44066277612144017
-0.5087335459031626
-0.3759834716680746
-0.5081126398535931
-0.32307502141934374
-0.3575778055402437
-0.2786759942746174
-0.5906577134316164
-0.34710567039487383
-0.6228194490608018
-0.4459211559589436
-0.483719379841697
-0.5857941171196187
-0.4817658724370385
-0.38310113951674996
-0.39063929737361525
-0.3451983271902961
-0.47340833820906086
-0.3789272707645396
-0.3285222115493045
-0.5888315854078461
-0.6848825489754182
-0.596566224153009
-0.5944341752404116
-0.6203038278728749
-0.714196263368896
-0.6429936462586338
-0.6257242094761166
-0.689282244730416
-0.5310016550946041
-0.7034380159841316
-0.668520576851116
-0.6523852082996132
-0.7090921355444579
-0.6684448814010945
-0.8549186820817822
-0.632378810846516
-0.5919823561612954
-0.638523887573501
-0.7044504921402512
-0.6512917868498683
-0.6276211208355253
-0.5927157408630365
-0.7853853421422898
-0.5359779626044463
-0.6275682038107502
-0.7598292700988972
-0.8595287589236036
-0.9063233106680733
-0.8265161273344352
-0.6739554687141436
-0.6974900712401247
-0.6136719984623669
-0.7187904409735244
-0.7464072439892784
-0.6470170882562323
-0.5456689151759624
-0.6133860487701228
-0.7338014021557442
-0.6382836516560618
-0.5371056284485296
-0.822636613521903
-0.6719851665008472
-0.5444589302081471
-0.46444884481257526
-0.5360468527824476
-0.676232803940835
-0.41332372665062556
-0.6015282837846692
-0.4785606036584831
-0.465254893410353
-0.49121333136933304
-0.4780831934988271
-0.42249540857755996
-0.5795318298266232
-0.6801056263286249
-0.26798010959909624
-0.35292598743775044
-0.4948434270767845
-0.13326197931709363
-0.2685208837300381
-0.250510994146611
-0.4547678087780395
-0.16526413272272264
-0.0842761025336494
-0.14085655375863737
-0.12457991336032773
-0.1995655955904442
-0.16034517223062694
-0.18593298312809625
-0.13256306386646308
-0.02914873583359985
-0.10887184831043528
-0.04887882572578733
0.1451273332167371
-0.15770786365130188
-0.0998054754907733
0.07273265534560722
0.1460437762928688
0.01881908960423717
-0.13710377001406832
0.18079837079954209
0.14618085060201022
0.08603944218082508
0.20168639329061638
0.1662254294778686
0.3216536735544059
0.15031806515864257
0.08513840198800499
0.22509618313249155
0.2773894445450241
0.35534826378092405
0.12652436930891126
0.4932445099000412
0.5683593692544072
0.25640736476445813
0.2885908726393594
0.5078379373210538
0.5050717832351326
0.41870294131486885
0.332112080986971
0.5249669400249053
0.44727664310011983
0.37158914331043746
0.6933281309970893
0.4748246826554476
0.38212212152391173
0.6117269098908938
0.6190062021529503
0.5370299758106583
0.8397359297545304
0.5341442399536621
0.8775004391208212
0.42874319537142863
0.5359742024558656
0.6024674722529194
0.7837123672313024
0.6116491881142038
0.6162141445679661
0.7220106995980887
0.7853729104036108
0.7184624000402446
0.9295131135835288
0.6566165225557969
0.628043472145952
0.7472559778246349
0.7255375214134242
0.681036208694639
0.6261209771818155
0.5773716195694165
0.6462859125843897
0.6425405490006212
0.6844901162228861
0.6868100065692118
0.6437144553565528
0.42931595874671413
0.6649755935258229
0.6614882893777274
0.7435912485510796
0.6825616494233914
0.7147979567105509
0.5167930833951669
0.6565345350283042
0.6128704321160823
0.6989567584469014
0.6671841395265352
0.7114206284640348
0.5319408129925723
0.5944914104476527
0.34136133353268194
0.7065208317175915
0.6053272131540716
0.5843426395798991
0.5564087734879773
0.556756848167531
0.44030287099089055
0.681094736728556
0.4371697639721997
0.5545438702184393
0.5556062507149206
0.5480825212816725
0.4613957318255394
0.5231251934752694
0.4190328528297872
0.4558929589070154
0.569174707638488
0.6179453653239411
0.4688022982292288
0.3897039942198108
0.45917508117290706
0.33101028773535585
0.4085145732079163
0.3450834529491725
0.40617508029456734
0.25585870268170524
0.31132816945239306
0.5337994814748916
0.41290797444063265
-0.007347403781534756
0.3928062711904836
0.2743269758884182
0.1231647840366501
0.27414862035269083
0.12624020448118806
0.41093892525362274
0.3208796950427901
-0.01630702383133492
0.1839291611656247
0.05749810691194171
0.20054917982994047
0.33549460216453564
0.11499202268944936
0.05437603544379771
0.23409706279996045
0.13909127513180722
0.21641331703991634
0.10699879049136295
0.2430594583855749
0.10089733486484134
0.20647606243406474
0.1442727564914749
0.1205550497118266
0.037574054669794056
0.018104649795615047
-0.05255594760856247
0.159963187474266
0.07820243814481553
0.12489143938122872
-0.06293956084004544
0.18833524160480175
-0.16344185740160866
-0.034933677224607954
0.22968074723424792
0.10005455504467622
0.022531503521046905
0.062320285771673
-0.061206334252587445
0.07753729379743214
0.017002254867150433
-0.020600435885336967
-0.09465693758579236
-0.054539234821625704
-0.1870150248897971
0.020527218782563212
-0.1382685547660797
-0.14705606522554493
-0.013969464044559038
0.3069789772211819
-0.08015848602251033
-0.18718699716204185
-0.04490019704910506
-0.09528422775383028
-0.07890537240092736
-0.04497777988733047
-0.12850320460666173
-0.05068150258341781
0.011803489521293092
0.028839907175371007
-0.035428477117119585
-0.1031240453149102
-0.11930716418927598
-0.23655778698716115
-0.033894875284362275
-0.028471686875924565
-0.12415952647034453
-0.3377734063956356
-0.16327904175389418
-0.02046883362525287
-0.026698553892039734
-0.1581566838000081
-0.21510850388061586
-0.24051848918159485
-0.19809424980678805
-0.2836785647772968
-0.1653667926994542
-0.11287614565649434
-0.2812364369427966
-0.3120966226190789
-0.2406570011906293
-0.3045787707932617
-0.32356560349525754
-0.15675229901025606
-0.20272056358467705
-0.19638864911630083
-0.24636876909943048
-0.501123253574843
-0.3811013008651344
-0.4969730525582481
-0.3008408950183139
-0.5145684351925331
-0.46699845437274345
-0.2522618378571079
-0.4838037028937114
-0.4588453070443337
-0.36566167169402863
-0.5145810601217611
-0.37656260036244993
-0.30334051435756304
-0.5500381516535737
-0.45323590655862284
-0.46843875557210807
-0.4959506496298482
-0.3991295474528375
-0.4218655544134685
-0.4648426740374632
-0.48075474872604734
-0.6908123702205207
-0.6317131040612725
-0.6533963201390026
-0.6441871571073156
-0.45911568132819236
-0.6145043772722651
-0.4328094039655431
-0.5745828949539443
-0.5412303152893804
-0.5288068912394012
-0.5575455898885046
-0.6717428337600154
-0.8232911790135061
-0.6564267550484962
-0.7798409421796864
-0.7040649991363439
-0.4946194029838721
-0.8217389363209684
-0.4736971785001156
-0.79151714083232
-0.5857356230066331
-0.690993440856791
-0.8100578311625019
-0.5981748463163469
-0.6937515267682967
-0.653006157444105
-0.6692136004220836
-0.8106525786145342
-0.7318973605042037
-0.7563476603150369
-0.7950477069071095
-0.6150799544404095
-0.6116082875546934
-0.7409098659256157
-0.6589767346296169
-0.663397956628218
-0.5897673920993207
-0.8793107628447586
-0.677315134787999
-0.5193097668169022
-0.5202738863873572
-0.5925494713792016
-0.49685860074280924
-0.7051541699227531
-0.5807525953364032
-0.5258812399099807
-0.6728832155415059
-0.38144591887250073
-0.47004568676728165
-0.5439013682751687
-0.502750303244025
-0.6742240091765689
-0.3911744050842764
-0.6297411507544197
-0.42317726580829457
-0.580390173356838
-0.6329602757759337
-0.4639291827294616
-0.36071244863808855
-0.41345029830892094
-0.46837341675437616
-0.19167702236631573
-0.21678194189018005
-0.2935593626897667
-0.190180002688845
-0.3522569208661505
-0.3364713700448235
-0.09333494295852665
-0.17532139038350994
-0.19589386334930453
-0.035687987625731166
-0.01672770298234047
-0.31789830361182503
-0.04441337960945637
-0.12409633124535371
-0.336189968298457
-0.14488421364618542
-0.007982433399168855
-0.066879504333442
0.060499606589008596
0.05953749596216771
0.07976483880024988
0.22703746232214322
0.19765280913735264
0.10705741286263987
0.1010497793251649
0.14984245825190856
0.31423813292807595
0.10602637797769973
0.22260326670501335
0.18264508113785122
0.395929557851002
0.178076054040539
0.4154152831805007
0.2724849057847742
0.3910832467701687
0.3795426490000152
0.39833186721304364
0.3688577872198287
0.4384748839242191
0.44612998370693574
0.4779345563767647
0.48740854563001434
0.6925012182095727
0.648611295480845
0.4386574771675439
0.4007818697801627
0.5921015951179922
0.47425541943852995
0.49946727253506384
0.8833095379702447
0.4817408825435225
0.7041906590507572
0.5732952589892436
0.5193621772037101
0.6982121264776217
0.5483847523802957
0.7307073871479877
0.7067883442498135
0.5152825765349709
0.8350293195536128
0.8120767429106488
0.6086170608143547
0.7424137195352659
0.6019459579167462
0.6209527291041138
0.646365683430319
0.7225746074908219
0.5588881573566377
0.7038061767097318
0.838842910155626
0.6565247719471293
0.5966832940769818
0.7353716211002185
0.6197086667215621
0.5645562891533588
0.6768362666441463
0.9988219938497089
0.8434058741431949
0.6457972118822303
0.7019363575946103
0.5651513596778193
0.7752002757804943
0.6760634096681288
0.8146727255633959
0.703025922818071
0.7167031138181624
0.7309068511580878
0.6505015994492218
0.6090519331116558
0.6932740277756396
0.5842895714449199
0.8500213256706508
0.49517019404726564
0.4601227917673308
0.5482351734906444
0.3969132880955234
0.5071864411350274
0.38517814206352785
0.3914367376814784
0.27781769790944455
0.5195077128194233
0.3222449433929554
0.5562149626417352
0.45167866955291835
0.44950267999548127
0.5123675711385878
0.349072721158869
0.22874331268056114
0.42919844497075693
0.6309085008359374
0.5250080777482209
0.27217321435076614
0.2907431712668353
0.4567262975915028
0.30671658714231986
0.22696496030907776
0.33934772644329203
0.4866627147559702
0.2538252334082716
0.3620679410058125
0.2769546334962591
0.11967768006426013
0.3255788891884498
0.2027997566046595
0.24050862578696836
0.16468471499801102
0.3338284444540913
0.373014862822192
0.18570395564718317
-0.06012748744113877
0.030722884860922922
0.16167728841355267
0.16984406481535427
0.14405445541931114
0.03852455886992287
-0.018945141995199533
0.10739928400485942
-0.007964369836633511
-0.07431459300035556
0.21445919308634806
-0.08824796313727229
0.18028437482955917
0.21104345769970947
0.03598251495321156
0.06538072082281887
0.04567715571657624
-0.11234530056031437
0.013281507366357477
0.13427950500426006
0.039977272488238326
0.3076879020977454
0.01984171405485913
0.0677632523960734
0.0809826178409094
0.0024463015172749535
-0.06226249862835313
-0.044870195483257845
-0.012906708548775344
-0.13447459543470577
-0.1285401515315623
-0.08924195793843884
0.15672632902073494
-0.0969608599482314
-0.14467057769063923
0.006101325971967074
-0.16908661129146982
0.10371750104504054
-0.09930282290507855
0.023875672873793427
-0.07433373016147751
-0.10262203180515449
-0.16529558370113767
0.10105018039785563
-0.1300864748487338
0.028431273291772793
-0.024795408590667464
-0.005898022021148114
-0.04038541433824363
-0.20222199852056588
-0.025770027532061104
0.006244752849859897
-0.0655316723721838
-0.03160600110724816
-0.11520987797321741
-0.20545309826838706
-0.17833307381588923
-0.06271315575780732
-0.17697231761040055
-0.26794090330478604
0.03263512142680647
-0.14681852705162024
-0.20970587809041336
-0.1686931812445476
-0.2734145891246096
-0.358807675378711
-0.18641253568845984
-0.4470026501101749
-0.2158816978632268
-0.20908525347167436
-0.379244607393055
-0.1846647715917928
-0.2571482505336014
-0.3724349515574737
-0.31083770782818626
-0.28132441904622474
-0.429071721370823
-0.31402946707877283
-0.2191854972867206
-0.2247639335379312
-0.1989147506342059
-0.4389956779938339
-0.5746924949058028
-0.4378239006512963
-0.43449179658763887
-0.5580684223865549
-0.5062234992942828
-0.5061361080366555
-0.667231160845469
-0.4995753663932587
-0.46521855196914924
-0.4065367574988145
-0.5342662913517865
-0.5243049932266098
-0.5039357102414596
-0.4531321826091923
-0.643430351605593
-0.4377907390702359
-0.6255230326961387
-0.40788587675396704
-0.719094567653314
-0.6714023798507145
-0.5680765079286245
-0.5503766286234556
-0.7155701912603386
-0.7960129513537206
-0.7214883459972053
-0.7016365728593787
-0.7445125246191218
-0.8231706089500471
-0.7115668009382605
-0.5792534823095794
-0.6139617214753236
-0.7200837403181843
-0.6271700208083967
-0.8300813030817142
-0.5171089282848318
-0.6513520658682634
-0.7694038396914656
-0.7387600489019918
-0.6673494531298271
-0.6197093319881335
-0.752046446535479
-0.6321986127451423
-0.813032017029596
-0.7133502268788909
-0.6267661898179895
-0.9011880469174909
-0.7801355888343574
-0.6777597231380432
-0.6062617354436701
-0.681554594971378
-0.6834527615730172
-0.7867791492815839
-0.6562354869824245
-0.5877674219542295
-0.5423200245914629
-0.8421743892517876
-0.6522914173110237
-0.5513495933516915
-0.6984577468840165
-0.44743271638207505
-0.7186519297039151
-0.5331585696590984
-0.6550771540757595
-0.726523405157578
-0.659912227242885
-0.4261849226735223
-0.6686678094514166
-0.5894024370546996
-0.5720075979779354
-0.5613763448489972
-0.5193743537103139
-0.6304797921929819
-0.4197480665001236
-0.4642088608302347
-0.4900393591725505
-0.35769628201213083
-0.3255394384966824
-0.4465066161753507
-0.3646136336937835
-0.25350961153262636
-0.19239350799202604
-0.3907114929770047
-0.33270025942563547
-0.17414817553860565
-0.24391635821290605
-0.33897703759434217
-0.3212772320645979
-0.1546511262742843
-0.1192937321564921
-0.15977057125698813
0.09709292239335227
-0.09304574272900643
-0.025657253010289115
-0.06411710889720243
0.07643393520781261
-0.020797636275072688
0.13784011963644144
0.010562145385474925
0.09688255500462274
0.02180044231361375
0.23313332298231376
0.04027854889737986
0.09356515065372975
0.18735383840515155
0.28271476910038584
0.3265323914143445
0.37552214391660327
0.5054645211580604
0.4143993815782903
0.23648063405144587
0.25581903952378043
0.4944130319334833
0.35595811702341684
0.43134384626785827
0.5061189537651678
0.48023988608993246
0.46447208377226035
0.38086723870390976
0.3173644801694293
0.5414887977326148
0.5067348778330049
0.6249116532129522
0.6540836013076087
0.45834147956564164
0.5991406232023516
0.6081741655885045
0.5704675958003187
0.694486933969038
0.6216081870969955
0.52393016464791
0.5745214899978851
0.7833107414376543
0.5245585478433598
0.5722087663628266
0.6580163697062511
0.6269296772878594
0.669998920196191
0.6596766612671869
0.6253698190906165
0.7420930366466518
0.5980551212543235
0.7647368663225258
0.6606184254043855
0.6280249051935979
0.7242168458481353
0.6241201576095468
0.7226581264549222
0.7274807194493307
0.6313471284189027
0.734401883559286
0.704581931695732
0.55220899021652
0.7624856056192549
0.5928004462928069
0.5683465491584786
0.6592400598406687
0.5503614469004147
0.4215875537162637
0.7579127458687676
0.6919304846235227
0.6699809008870236
0.6670124928920401
0.5657393036515547
0.43493597766535685
0.6701836030795536
0.7191305617633568
0.4799089955683933
0.5968593021962229
0.7674287646671317
0.7236952685271614
0.5576907811573861
0.6246014973342774
0.8064324533277838
0.507040568098597
0.6554000902270981
0.5639479726381997
0.5639641726794692
0.5009673451874507
0.39380313291452607
0.6085054903365296
0.463697006485106
0.4493119019216485
0.524169578480148
0.22122861515214395
0.4870901716816975
0.40610654797556683
0.2933245474498385
0.36027499768573
0.2188220604369776
0.29250385128733547
0.2618147969285906
0.19022386691628088
0.3442402067569245
0.2459922529013819
0.36319295833159715
0.32924866747281345
0.31087682600805566
0.13673495403426872
0.15974512526812135
0.25569731865677375
0.2825383086606425
0.3142957922107668
0.23171803502175536
0.06869592905691468
0.28617812155041433
0.3442230543923488
0.23233735735999175
0.1857757385864031
0.06730073771660403
0.14341562438636102
0.0639212498757531
0.3736507751703767
0.26688483660711293
0.20498751901237042
0.18227708233811712
0.04367341726384365
0.17192412747587243
0.11900360367616722
0.2278642048635158
0.17342879979764042
0.0411437555067002
0.19686277201636065
0.23456407838686014
0.11769979548446133
0.1850758452017024
0.1750725521437878
0.03460878348511562
0.06745302396192819
-0.17184443275920544
-0.017560970681461494
0.13738664105600817
-0.07243415662182325
-0.09194018351330993
-0.04808877491448211
0.15229695311054153
0.21838375186472492
-0.007683961433490507
0.05078218189521029
-0.05763874707900204
0.04278468969409091
-0.03096763043449514
0.06415112533065102
0.05498417650817344
-0.008060832200117753
-0.17232574612157472
-0.07674859618251037
0.05913846856054347
-0.09995425725263142
-0.16255010148393512
-0.02704158367367754
0.12515176573305747
-0.1258096663011329
-0.13699010784752663
-0.08334304467683594
-0.024538461407703993
-0.09224123029386247
-0.007685650899566437
0.014671459931424047
-0.17429257002157045
-0.16568823811127123
-0.21562882590712737
-0.144780866173527
-0.3518559724190983
-0.2512839440706435
-0.2038872375163625
-0.2848376763888621
-0.2007596570951746
-0.18192823091898946
-0.20081547221266158
-0.45735590367189766
-0.1896049580173351
-0.4140846704824964
-0.1800605632909422
-0.2601106613721353
-0.26474673047216896
-0.18392277721451827
-0.3528092084486303
-0.2615019951086476
-0.319653038483101
-0.20657478978784438
-0.39795080064189015
-0.23209114354037397
-0.5125506809213091
-0.4399913082914197
-0.2896499455222047
-0.17959714458351778
-0.46592757955919584
-0.19373032443352983
-0.4848218563720541
-0.3762406468425283
-0.2633247758825218
-0.4584405369643832
-0.3194604643664008
-0.5884365395399127
-0.4446833041543025
-0.4100028730156358
-0.3360164232988898
-0.43531479496323755
-0.4565317687603074
-0.4475370061197596
-0.4841191692752859
-0.4898065186243706
-0.6352211625587216
-0.5929984553778369
-0.7356814931337352
-0.5280711247661162
-0.6741785528287227
-0.6636705550770419
-0.6417604745756944
-0.4586220323760439
-0.5091655971542264
-0.6763739614201194
-0.5850309352227914
-0.4392031219709497
-0.5580669770492699
-0.6352645412940038
-0.5985365975902774
-0.8335951438038764
-0.5894872456789166
-0.5328557457112496
-0.808559040219975
-0.708971049299614
-0.5907391976922075
-0.5955401068198165
-0.8256963901392127
-0.6968240091097215
-0.5478276930068013
-0.6877710566869
-0.687785222968172
-0.7995258928462765
-0.6816459931845139
-0.7249463780762967
-0.5962819341268223
-0.6904923006334387
-0.5942469274205939
-0.6210897731798003
-0.49391457224123525
-0.6090954894884338
-0.7788643888513607
-0.5242859907745833
-0.4025265401412943
-0.6978750681487103
-0.5294798536668577
-0.6940891879747534
-0.8755837788789484
-0.5589035082948445
-0.5111778712631571
-0.5527307626201394
-0.5293160531297205
-0.6412142717231593
-0.49591977031155715
-0.5064163943712215
-0.2989289900998741
-0.6121971224646924
-0.43353426103590065
-0.5978209499168633
-0.45516970503531756
-0.28974555622139875
-0.3980844534936396
-0.31581174022172404
-0.5148155093950143
-0.5966922020192014
-0.3448846961583815
-0.380335153736919
-0.39277285588269095
-0.3113228092350695
-0.4024303105042196
-0.26816989803394936
-0.3556544403570796
-0.3039208909158465
-0.2515565384884506
-0.35783382965326643
-0.17997715065860362
0.05105202155812996
-0.11828485496140602
-0.1715067894307125
-0.2823811743211331
-0.27507973005326547
-0.00720669098499746
-0.061698564813478934
0.022886672400228514
-0.10942136726393491
0.22805800150300248
0.023479245231498073
0.15323349550287496
0.2004408084180081
0.2044171666945473
0.16594064634056047
0.20502103135126312
0.23506659274401573
0.18713051790466123
0.1396708162989111
0.16760029180608166
0.030861696756732504
0.19754426615558485
0.3842296397603929
0.23577161794502371
0.22943682218957007
0.3499767107135639
0.6382755008734627
0.36503103810471815
0.35864688454220534
0.5269010920448475
0.2796578622020245
0.4249857562518689
0.3883231925086397
0.20802990059220466
0.38514186701333036
0.6192239771325211
0.44177341223520783
0.4567609971625296
0.7701648631782244
0.5050845138733602
0.5640249822959159
0.6705490978590093
0.4702505327477202
0.58281407613148
0.661930085835491
0.5987820057805153
0.7077113251229834
0.6122590890425007
0.7470962834914427
0.6364823142693753
0.718392305916627
0.6165425736920729
0.6252495276661157
0.7297232303273465
0.6809890992423431
0.7228010837778915
0.6569711292525015
0.592667988597312
0.6604216422627329
0.7796435649841755
0.4523386091157602
0.7626663540311388
0.7985258805905263
0.705169908850911
0.7271455568964886
0.5355338749709256
0.6240475183723693
0.6431781243810196
0.763093931749334
0.6301666824573229
0.5959720022322287
0.6445911006067205
0.8535512128480751
0.5737611910974679
0.30272345891672386
0.8190780610156848
0.7913330381494414
0.6099379211309288
0.6018954613852756
0.4719599657875086
0.5620672517691405
0.5720353352990547
0.587886461420652
0.37036740820923436
0.6452381571130049
0.6615718039291202
0.49416164935529544
0.6629253773406946
0.5779219373491122
0.47546524649226624
0.4517075462297243
0.566307056243821
0.4650803189479806
0.3866190384282711
0.5128147336510687
0.4646649075107744
0.4744889842868806
0.5809245588216461
0.385619062203827
0.47997146560209997
0.331114030014919
0.4472670023133455
0.39723753354201063
0.4124674893918669
0.330227699372278
0.5253469604198637
0.36388518527222524
0.20591350932991945
0.1335248154968691
0.3469231623827865
0.3449308163213995
0.18985575474904992
0.17465826342506224
0.209822027651531
0.05163950538199982
0.35581888556393293
0.39111956100396406
0.14169887888077565
0.3043709772598994
0.08656078835014525
0.2541541297208162
0.2004714193662631
0.12774758039790735
0.1394259804089936
0.02362182790115247
0.14781330479032034
0.40097633048950265
0.1441081924695642
0.10558788542074464
0.25653742510057687
-0.0315612319161207
-0.10963662243686309
0.16973551902073475
-0.05441762324920815
0.0923547888678158
-0.1263867950293545
0.19220906508593139
0.14583444289325548
-0.13448287384063323
-0.07073884420252777
-0.07504680610274053
-0.060576973427479086
-0.023218436980416146
-0.04155128134995882
0.026633965184680104
0.06910599074968561
-0.1255530098509537
0.07650735669871687
0.0282368170015296
-0.14003189032255708
-0.07004892637899551
-0.15688886129299576
0.1714502108233828
-0.005263651921667898
0.12190498579260979
-0.041524663495213984
-0.15133306357386878
0.0016386929400106984
-0.04036801993032575
-0.011029895339587127
-0.19411059217443039
-0.09506367726152817
-0.015616520772012879
0.00014664633065283872
-0.07404869598400439
0.1255727116591661
0.001823041285863053
0.04610933609950624
-0.014235865038771348
0.08956399431431644
-0.022371279500591645
-0.2439668216350714
-0.16158425798217446
-0.09355225288666105
0.0070581889186179525
-0.25751697995612854
0.02741293097785716
-0.057308603082380546
0.03989952969225383
-0.030663240407919054
-0.19454541012179327
-0.4231993136557646
-0.32067605570116625
-0.22871991079054285
-0.32056779680078995
-0.27567047489796814
-0.39096778878732275
-0.3054812792091298
-0.15611767586470082
-0.14838081351576865
-0.13166502004856223
-0.33119073180717384
-0.25064259016352336
-0.23996607651328658
-0.08844564348903133
-0.24514694264470221
-0.32830402236221934
-0.23641783822987367
-0.323531180401115
-0.3154857758555443
-0.44879719254279093
-0.21374539438125387
-0.2999753677227308
-0.4426892825421051
-0.47934727319345843
-0.43347249989268855
-0.44592589124463716
-0.18172885172990205
-0.3909909227155749
-0.5025816834776453
-0.5896586558998492
-0.2020125025328337
-0.3856921250025561
-0.5944174341516348
-0.6458986012018932
-0.5303822847450463
-0.5883505180086177
-0.4923654246717685
-0.5676332483940356
-0.586166803312082
-0.6175065359156717
-0.6555646938527077
-0.5839024780397527
-0.6563062147290943
-0.7133688176652923
-0.6040319747613474
-0.5700821340328475
-0.5921553512810639
-0.6061384191658984
-0.5607194248867117
-0.6622476981328437
-0.7128734273765757
-0.47133017764130636
-0.7378238249451649
-0.6392129477301637
-0.8529883300707085
-0.647236002263267
-0.7290286462549816
-0.7641799381780885
-0.6895884269938621
-0.8143704238704488
-0.5471267282836341
-0.5655844854807004
-0.8453174911471619
-0.7720118115786385
-0.5272112159474956
-0.8544804978401908
-0.6907640490258564
-0.8367481889489596
-0.5952857289831874
-0.8574655338770107
-0.7145496082113603
-0.7086933502477737
-0.5515387617291132
-0.6610758887208024
-0.7848303381423015
-0.6061718541780923
-0.6173607301756868
-0.5757124951535487
-0.5722246141746224
-0.6389686477922674
-0.45959437982230233
-0.4314102917469227
-0.431441016231068
-0.6908194816951801
-0.5596892860355599
-0.46461386959846235
-0.6259642310183311
-0.503537601003821
-0.5622811833211898
-0.7467318997584813
-0.36622532188672297
-0.43636360901401533
-0.6169340941663057
-0.3910467573173051
-0.3845480818324139
-0.4185437077435923
-0.35777820145420075
-0.2977134878035367
-0.383088009353575
-0.1255703314676408
-0.31744049528283264
-0.22612435151359184
-0.2617361712740863
-0.2372793377293002
-0.036107355311670836
-0.1689706330764852
-0.3130065511097507
-0.16804753729493482
-0.14274946804995342
-0.16533898443243533
-0.049729571762391164
-0.20746237246800417
0.002669799509286863
-0.2452613212730283
0.0003945327676863654
0.10419445614526418
-0.016707198150088143
-0.0029410848762062985
-0.00521465268603119
0.08938391150507198
0.04539795151661689
0.049160721338160435
0.3034293232885814
0.33620355319367334
0.25704885203925804
0.3216128269953492
-0.005366437444934036
0.20175630447255433
0.25865839974399774
0.18045370281982026
0.29509868638127784
0.22393005979944175
0.39299423210354184
0.18306097187047407
0.3395726410840511
0.40742929186487364
0.2729055600599498
0.24481506181287738
0.5453861711355101
0.39163945577540527
0.3181840039275826
0.6055051171542455
0.522246806353183
0.6482864371870697
0.6012404597336105
0.4313920038582627
0.5317892553235686
0.4110942807555402
0.5991848426380829
0.6026475427026164
0.4644421822240351
0.39078230721491414
0.614537887962075
0.6338747720737895
0.4832586258390136
0.6710761613013502
0.6283337222014601
0.9106620148132721
0.6627178033258273
0.8206857788895585
0.7263154552310287
0.43729042372085003
0.66568597584681
0.7303580134832657
0.6946899517355924
0.6867151633448831
0.8754584472860106
0.5333212587416744
0.5788651009708352
0.7316110908186694
0.7420251383312629
0.8220801884269411
0.7027408924301142
0.6388786847167051
0.6805481029974133
0.7986602378774244
0.5663380467470067
0.6480412871078688
0.7866659169678599
0.6329495535464141
0.5768726683860648
0.7345340525460617
0.4770167655988391
0.6582552135444962
0.6424226645084461
0.6308705546485671
0.6260477111760673
0.7197923226283204
0.7270996862478741
0.642193215192835
0.3772739538117671
0.5741853547599298
0.569927803485176
0.5019551673585939
0.5997651461422733
0.33758477692435906
0.5411485083431088
0.48161854659487296
0.5205275495478732
0.7380471839578102
0.4560888865106018
0.6853168770929703
0.4392048771322995
0.5199528908147653
0.44055550230796203
0.41857304434028986
0.46434819085224704
0.4473707564172836
0.3530451775234481
0.2557569573247188
0.5925007705805455
0.3873866447071949
0.4051082355687231
0.3783048081684135
0.5093246153645514
0.31184820823921505
0.15744386520476417
0.3108453557006257
0.4082407286423625
0.34110137052124423
0.16806217472922202
0.2740970169929718
0.32603446727491825
0.14465707648832576
0.23983915469236247
0.3677509542823839
0.15084657438290755
0.08849181885512597
0.28391594351224236
0.283233488634823
0.1640270311376758
0.17544860523256856
0.09289370935262345
0.22721101401150828
0.16260512485795514
0.27063368161494256
0.10176048054580053
0.13660700404475967
0.12993100271503968
0.07134676240496696
0.02687810369861207
-0.044262265578983134
0.03849010383539564
-0.05029407487302426
0.060317568331638885
-0.011632445522349197
0.046022670077946755
-0.0716179739364877
0.01044586360471162
0.1634532315946395
0.13873139714925867
0.0497067409820953
0.020844164999212184
0.11930165879317481
-0.06392307015378149
0.2012378190777901
-0.04779903283608101
0.22941886112526622
0.1599612904507889
0.1429672224890435
0.044827652065984394
-0.07207041843577748
-0.00937379806223825
0.025194655008892154
0.053848038469879275
-0.15815351199475805
-0.012763207911959458
0.03636453587399302
-0.10684260409487308
0.010306938704568044
0.021655199347715315
0.14524830726874302
-0.15799424080506158
0.001188878476863775
-0.06713695250424911
-0.044348159847131446
0.10752274662430542
-0.15309874724847491
-0.10101596350222983
-0.18507483808900757
-0.0001571986410402043
-0.07994542018306297
-0.02842123078528458
-0.10481466815387833
0.04920322693946194
0.04248235976545833
-0.030463745974073114
-0.349994740877041
-0.21288168611779806
-0.18336540727980613
-0.3231047550026746
-0.10025131416497804
-0.07342366529314069
-0.20453196536467122
-0.2751043204852148
-0.4195240055411942
-0.3472902142319513
-0.24025219338405174
-0.38758904760025203
-0.2008792469331105
-0.4429055908754381
-0.3829468333147146
-0.44054154259199035
-0.33147595936426977
-0.2707004071715132
-0.33376819297182486
-0.3367765320229737
-0.40421155257902763
-0.3406313621434115
-0.29433319270237246
-0.2566509319371444
-0.33258930670374365
-0.28998583002980743
-0.4596108747213205
-0.4042271458689501
-0.49518140627740587
-0.3912062288358753
-0.463895841022501
-0.5045199983762557
-0.40299708641887394
-0.4624382127290903
-0.3059344495583234
-0.5016727885114748
-0.4839256148815493
-0.6120412210550193
-0.6460524843653508
-0.5146748824814075
-0.6843093995871231
-0.5737718075854416
-0.556525734394434
-0.563282087727349
-0.5437758466815745
-0.5831884833429111
-0.6218100681550386
-0.5352856583460873
-0.8153893072631553
-0.6611497371300437
-0.6046635879751601
-0.7574565807077188
-0.6990986323664795
-0.4905775873992179
-0.5434018596835826
-0.7773508128726359
-0.6062638772220791
-0.6911983084544332
-0.7614323832282057
-0.5994856038227963
-0.7935538220372497
-0.7226159112055546
-0.9294969121251955
-0.855840651176839
-0.6299800110289913
-0.7435256010475488
-0.7910779128992675
-0.707511871397809
-0.5224597237812156
-0.4609584546657025
-0.781807057987244
-0.6876400442845202
-0.7019082733960242
-0.6287925038401769
-0.5397374981570127
-0.505514012271198
-0.7352722131626082
-0.604042663559008
-0.6884807649897067
-0.5587366172143378
-0.6264179500410324
-0.7115915496030083
-0.6162638770531499
-0.5904688912652157
-0.6096894594407313
-0.6042462764414722
-0.4458497282978616
-0.7540737459116801
-0.5950519021199934
-0.569700458977239
-0.5128923024345536
-0.3993021602967245
-0.48766860563810976
-0.3266515229355138
-0.3493506415340678
-0.4490274383074234
-0.4610781219960369
-0.4178029158900309
-0.4723162269887844
-0.40191815906238654
-0.46616475367172194
-0.3458869568880051
-0.2877314945693868
-0.3141619215447258
-0.30408079351699857
-0.15152706654614778
-0.1966769393991896
-0.21624024266334024
-0.1690457448969339
-0.17231206702800858
-0.1593768145181888
-0.10304150402402378
0.01732401407379351
0.09287341339242289
-0.04493470201380946
-0.14703065392535503
-0.04401996633067909
-0.14413353283031954
0.07616794150816293
0.06539489571410416
0.21415138103173015
-0.002798733553262364
0.09408709341903514
0.2798659075182778
0.1894615074718579
0.20445197890835518
0.30525283794473596
0.21838767382356286
0.21821784864360186
0.24528845423855802
0.19938887676086905
0.3924496734477693
0.2039066939718711
0.31523650687478255
0.41748879055840304
0.3441533456218333
0.3992169598543892
0.4947062592215889
0.4124872972891741
0.4809641997364761
0.5283756123242439
0.5490327951590653
0.5273858055503424
0.5330732331270825
0.3001628570200311
0.5514685306962224
0.6056344929964
0.52694145496529
0.6611078926373627
0.6694835095133306
0.4465638927727592
0.3738179249367966
0.9090895488878892
0.4889417916533594
0.5114609832855189
0.747076953487793
0.5682123391977449
0.5732568292259914
0.6633067445013637
0.7685294684103905
0.6710771670932572
0.5514166774827078
0.6931027537712984
0.6148567192603872
0.7094935998195339
0.6441639067012932
0.8589231754912349
0.8226860629067423
0.697744451815314
0.7747778175804025
0.5394517531367712
0.6897920001104736
0.7538747724306673
0.618064323996832
0.7156839316342192
0.7956819788623855
0.6742751596818448
0.7013288073199132
0.7142982063612693
0.7591409086057958
0.6501905859090599
0.6992243749458129
0.6780878764714635
0.5132326691801384
0.4895855402508386
0.6079302132273403
0.6345207252235592
0.6950128880138431
0.5531654895522531
0.7330690616095814
0.7464055032937906
0.5983843172186772
0.45666663937545227
0.6310928362984269
0.6422807111786575
0.3217231854505519
0.4144897515529224
0.43586525105080215
0.45767668857674365
0.26247763117110734
0.43964253912414114
0.5220702284525551
0.6945977593127975
0.4541030608564656
0.24595981805036018
0.3699192723704353
0.3595932770379362
0.2721616649710292
0.2893798338839789
0.3901547024414927
0.4694111034286052
0.248657388297988
0.29623353578206363
0.49925953403478596
0.3668958280937607
0.28802035809087145
0.2815951583919355
0.3801576500188697
0.3533192152912642
0.33670094336683654
0.34114096691319484
0.13716767502391758
0.23513272970967922
0.10737963099740316
0.251860825272334
0.3245658273962371
0.03347460888858578
0.38817098963635593
0.2895313770983354
0.21666853600630306
0.21807474009609254
0.15699278230710817
0.01950672509772758
0.10638954165222944
0.17030065394924795
0.30609183921831207
0.3475791893259741
-0.029651069012363612
0.03644563646469895
-0.11197237817353434
0.20625078348066533
-0.06954429014642916
0.06713837338146658
0.08985725005050205
-0.011532285462476755
-0.03403975074761241
0.08070972395988373
0.01271994495238011
-0.05256776736282455
0.015076582869161616
0.19024787609102844
0.14572410311863968
0.060541973013600994
-0.07030518419091408
0.0528728248704132
-0.11605937236870752
0.12119070855627981
-0.08927623957112751
0.0582456947575227
-0.05225505661612906
-0.06482270397906797
-0.036290290050421135
-0.08657244272092772
-0.024053300469550017
-0.081283196300063
0.07003499641839699
-0.03634740002263448
-0.13144598192706772
-0.10351743605092824
-0.03128086515104131
-0.047906084593283806
-0.23138116136559736
0.08500994323314301
-0.08758165343051662
-0.038521313833376855
-0.10795161416400463
0.10840356456086925
-0.12608617332858976
-0.1982577004129287
-0.010284622509707103
-0.18216081163087577
-0.0776145459307373
0.05511657287848484
-0.11117001685142644
-0.1991849337932778
-0.20985427816028623
-0.0021716861741861715
0.024842390619289112
-0.2560213283225888
-0.3674305135520871
-0.08802599771049459
-0.021339983340669832
-0.20297240883861337
-0.2047258430733953
-0.41527219514360514
-0.020266670563525963
-0.24822501211044173
-0.10374049567467833
-0.32004301900388477
-0.05163289046732475
-0.1406755011942449
-0.2876114282727262
-0.013635929384279433
-0.1226251646518344
-0.3857086104158124
-0.3742284491378616
-0.2884103591046438
-0.22625940781878792
-0.32342315339717487
-0.3338465443780395
-0.6797342081926169
-0.3897128775523837
-0.4290953516027953
-0.3310038856925324
-0.4148663989500551
-0.6435632063608823
-0.5611832847671416
-0.3393693528745024
-0.5262654876725036
-0.43125093850542323
-0.3646529095865021
-0.574778074182871
-0.4485572279832522
-0.5819457029974202
-0.48355230335222643
-0.5168424971405168
-0.3349495631828466
-0.4488877098748198
-0.6345123478002045
-0.45483469567468277
-0.5417009588301908
-0.5655172059615086
-0.6977112751644547
-0.6420687150168063
-0.6532630397578423
-0.6814165521773349
-0.4788611718848551
-0.5291069315440033
-0.538773076516641
-0.5767434595846929
-0.6436903831098814
-0.5678563757219505
-0.7148481474568493
-0.6016869512604639
-0.6406704294698911
-0.7452264142064996
-0.6652534469153423
-0.6202391670116473
-0.8060388400739558
-0.5224260492675398
-0.5756197403209279
-0.7284702262376529
-0.858788018191023
-0.7717411890184204
-0.790252372194896
-0.693941291634339
-0.5741846297652211
-0.8111561570464614
-0.79116588721816
-0.7680990430638345
-0.6487068216456566
-0.5816736485322698
-0.5802627655154758
-0.588637948027829
-0.6280130733857726
-0.5808492161621535
-0.6375105189208087
-0.7368646103519927
-0.6050377693964705
-0.5726352714088255
-0.5450583484140017
-0.5787392659634691
-0.6426980655826067
-0.5034612086034946
-0.6982957731567081
-0.3826356285778174
-0.5499394917365381
-0.5868359170373845
-0.6086999454434433
-0.5408425749919459
-0.6163125152974286
-0.44380916362959233
-0.3699497486566226
-0.3342468168860377
-0.37632131844131783
-0.43142446127311884
-0.3764357045696798
-0.3185148906488587
-0.2918147207587542
-0.3829004909468374
-0.3165183461987532
-0.1411567658123283
-0.19250886642073306
-0.2981160036933881
-0.07916314104087505
-0.10807975236191654
-0.19008329719391304
-0.09341520517989454
-0.20325814757427413
-0.08936861000362677
-0.21246343859824723
-0.2301010616733259
-0.04178296297030109
-0.042039521329481064
-0.025359047546869802
-0.16818736625564581
-0.020837893763164007
0.23281626932389876
0.19431637062237078
0.0011045055047647495
0.07226232941488281
0.053344286074483285
0.23226090108668362
0.15770408558236765
0.17547595149909678
0.1996991017833094
0.23528682837242962
0.14445353612520614
0.29984692572726807
0.24418566253870408
0.556679076978965
0.3149595293441555
0.3799637145077592
0.42988997557036857
0.3745928229150345
0.5206941786614893
0.4295270762920016
0.4787764935828571
0.46721276111752724
0.24866669966330343
0.523437266832261
0.6660477543879559
0.46326786931332153
0.3855284027570142
0.6197377013339951
0.5622362465442609
0.4794517745098083
0.5601891841947564
0.642065907641331
0.6464191588341461
0.3773402448001726
0.6758664767754878
0.637572388549501
0.6116252766340063
0.6794957177558872
0.7531361512092084
0.632505237607291
0.6865914475109186
0.5971218570822382
0.7761734398464827
0.7127636678399095
0.610675218917689
0.7985530196334033
0.6680271140718705
0.5592095961983127
0.6091547998616187
0.6920794944158162
0.7048929498932152
0.7639347911943531
0.6260683397597235
0.8795213999352761
0.7497044876167631
0.778361509915136
0.5388125076262389
0.7293002135467402
0.7293248507877788
0.6521001410706355
0.8249593956233852
0.6207433712528089
0.5571917472660235
0.7016785916817722
0.6909919684022318
0.5522044023821779
0.6494251846988118
0.5508840295839175
0.5746368228200799
0.5179457673730182
0.7067418346063428
0.5355049053949947
0.6949891360956115
0.6262230293974655
0.7374927813536852
0.504188157946433
0.642044016047158
0.7160475745554694
0.3531677014141807
0.47866911438829435
0.31387132855787614
0.489609488367008
0.3563786692054781
0.40077213669791056
0.48626361508831795
0.6134598367058943
0.5005699319801499
0.3590734923738211
0.3571549032396658
0.5108021838500554
0.4397818745785005
0.5104636537115445
0.18939640751383385
0.3999397534720036
0.29375146938340535
0.21190202232151423
0.4111236839719632
0.37853785946309293
0.2678978802952021
0.28885093440513104
0.24793148128153952
0.42909659182999893
0.19175260666271943
0.3278822499380991
0.22166077189245187
0.24846970702110913
0.2002430643199711
0.1457082244911013
0.2646108698290936
0.17988682222556218
0.19969410385341752
0.08176900288043996
0.24820080217156465
0.10519243141052813
0.13307732759818433
0.2546682154993235
0.2702934778856336
0.17042367985360693
0.13423263635217822
0.07311825997403794
0.20197898675204284
-0.061092649558567136
0.17982312209693835
0.005889964030004191
0.13808312888569002
-0.12075440269894744
0.06315226032339745
-0.07221702735129945
-0.004543411787026039
0.16582226526279278
0.06307215751779768
-0.04958900292580168
0.03804252209084561
-0.10066135892755967
-0.03370048843762201
0.024086545692511552
0.018733173233962112
0.04117826235250514
0.0239905628572316
-0.17794275073842822
-0.027213559156925582
-0.1480896729136372
-0.12516724010821564
-0.02761624930559691
-0.05221271902878128
-0.033334942005337626
0.15032810135027183
0.16458143061066244
0.06549743372419058
-0.054703161811417045
-0.06287435023334778
-0.05390746731588716
-0.23667207288424455
-0.1280470103087904
0.012426200925893124
-0.09392317433317854
-0.015750960118094175
0.013798705601908975
-0.17027347133670187
-0.10318138563096445
-0.1991603483450995
-0.07889703785129709
-0.06397867705865588
-0.0002126306445192211
-0.2893960712213233
0.00014827672905243228
0.04462959706512967
-0.19256789162180374
-0.037970935892935515
-0.11617412595750876
-0.08079476365858217
-0.12328862438598012
-0.24720587721385864
-0.1583976213800047
-0.09626233055758375
-0.04834401541756536
-0.30675183461973954
-0.32748033740335447
-0.16587233920931788
-0.24004395691075017
-0.32817267997592414
-0.3725381656501136
-0.4082164371837978
-0.24907790279849823
-0.17770070904538018
-0.33627668308995573
-0.3482175749127875
-0.27260851536960246
-0.24786168636988354
-0.35574077976128954
-0.5116626129959195
-0.5728697564517199
-0.3417618278908913
-0.40971698588994143
-0.4738747672703303
-0.43463791373559985
-0.41342638832290646
-0.5868120831694379
-0.2783101983109437
-0.42424676443875176
-0.40053891189540236
-0.5300344251842406
-0.6823497363198726
-0.49275931940732043
-0.4626661821905869
-0.5935528536684169
-0.492146329178239
-0.5669883332604763
-0.4649076058084122
-0.44404076370903345
-0.5021251166181598
-0.4975583433495508
-0.5755735495658364
-0.6425628801653527
-0.6652606590571379
-0.6356819112600572
-0.47813964704583833
-0.4820602298576796
-0.7734075174266007
-0.6122452532089874
-0.7185788546157912
-0.7828671040341526
-0.6030036677218094
-0.4763922657166149
-0.5772444293442108
-0.5706234826929741
-0.6981605495862877
-0.7402779920011046
-0.671400975327502
-0.588454190164419
-0.6509491050194788
-0.7417303949690452
-0.5349055256504099
-0.6229405186996906
-0.5996512414489508
-0.6797555510838519
-0.5794189447770547
-0.6478247828765092
-0.8702848436362265
-0.6081853933983773
-0.5674585782796754
-0.6849162949374478
-0.5675420818088037
-0.6915096180549426
-0.6885737127574917
-0.8521687195999884
-0.6010626942791466
-0.6049344321237995
-0.6417138347877278
-0.6417922300831267
-0.6030304105139792
-0.5997820554219433
-0.473896377436738
-0.4855238277187595
-0.617139112392469
-0.6280089889793966
-0.6279979127014949
-0.6649297925375215
-0.6626578463453323
-0.5293346339826067
-0.5468980750195879
-0.5695918643539333
-0.6604305681210657
-0.43502691799510756
-0.5810608685180098
-0.2582927759036922
-0.4596797126150311
-0.32111629718152973
-0.4481569918372846
-0.4561750660564689
-0.38823345627506173
-0.48454010403716996
-0.1459118936820028
-0.2580725725729312
-0.1267229400388307
-0.10285299203627785
-0.18722777165047333
-0.10537323240956728
-0.24063435232600758
-0.04264696249013103
-0.21364943216604454
0.10905543255880779
0.05092419416036144
-0.10406659233139723
-0.11246668092604895
-0.01956936727518835
0.031044193553212907
-0.03177316787343186
0.030209643181642286
0.012665341258847121
-0.05275399080276738
0.17079089523025673
0.05867995378128388
0.39763120612683844
0.11637054371004789
0.307771495916641
0.13444217342336123
0.3170068818817936
0.2772953138971151
0.3552194743583585
0.5217475882081649
0.2866833465649451
0.3739921560931178
0.43175112746969346
0.23897832743840722
0.38594613339461353
0.4197381881617128
0.43002329533596995
0.4691230225275361
0.4762745154878213
0.5753217935683639
0.3958746424080041
0.4805513216415868
0.5216022853641874
0.6694942555334092
0.6779668538820274
0.5404385499661384
0.6753419213491028
0.7822537212468781
0.5734711220992191
0.694774271683019
0.6288747543271699
0.614490713820886
0.748592942663618
0.5362213748516981
0.7176140894974502
0.640828603582052
0.8476473453784819
0.5428045716714379
0.6308066493768134
0.630906616107197
0.7747912428849678
0.7263649700633578
0.5030947422338464
0.860345983186247
0.8347350804112292
0.7301086938850937
0.8465635077281847
0.6174956778543438
0.5622435992894091
0.6135140432667898
0.8144105093201962
0.8298543971351885
0.6037956643099601
0.6419075333788132
0.7166789797496963
0.7451844770470816
0.7088096529814853
0.7958272218921707
0.5444931758418463
0.524170569184429
0.48951820377622973
0.6313654950831102
0.6223117288097203
0.7278675508127279
0.5150307413650342
0.6160158377456283
0.5726684501912399
0.6442638160496077
0.6662366493395577
0.5455087366774461
0.7376685028043435
0.5908553861039837
0.39474955785110266
0.5794240105931004
0.6518939173340474
0.5194762942216777
0.575046379355573
0.5700584038127816
0.3362591008950757
0.5555362281398457
0.4150468679949522
0.5171802893394368
0.5006645675457277
0.5344480916500587
0.40314973142676486
0.531039617302761
0.4172505388513838
0.2537043194146096
0.421348908227682
0.2611878531475638
0.45203807527964335
0.18612038788497076
0.3590441166815995
0.3593121009409985
0.2832868404395586
0.2771626690567157
0.20379086694991644
0.31944278879331317
0.31903940038865336
0.43520501646917925
0.14787950210469442
0.2576113915089087
0.23226551051394573
0.27939077231548426
0.17984157438516596
0.013629945526814569
0.23652324240198225
0.18693807418969094
0.23618166286782116
0.14221602663167254
0.24042027718207068
0.15939633447267634
0.24472625909286183
0.14242170381312064
0.1577154409553218
0.1701793789224156
0.10591898172953922
0.14173716796655464
0.2042154666481738
-0.03983598682809622
0.20359376436693133
0.09724449411624823
0.20560572051523943
0.14301339643825753
0.017030508163082415
-0.04133508034641657
-0.0059872973897393544
0.043426246962821664
0.15174728515790786
0.1685419681799971
0.23790660322721727
-0.05167390906014069
0.14304614907629756
-0.013515437805061738
-0.09817544791520208
-0.0770153758834257
0.0777990549420944
0.12609620966586196
-0.013981924930267023
-0.06642936225226741
0.16088983933057868
0.10857209433787218
0.08674635894486321
0.037732896465024125
0.06837195779278307
-0.11310159205147803
-0.10973404073070252
-0.04706933111323168
-0.13682713300148558
-0.045406259363395915
-0.11916627701462057
0.017143077101603052
0.18477782348856747
-0.11856283918872465
0.13497973945246936
-0.09099021006787637
-0.14644554474658555
-0.1557905992200464
-0.1299179568889256
-0.10800563315846987
-0.18876767846160192
-0.3079782520795054
-0.20000266318093127
-0.1302280156698091
-0.19276589471020966
-0.16105202768952465
-0.5149178703229673
-0.12480440259276547
-0.17111669568168292
-0.2548702808181503
-0.3017000338257075
-0.2747515580291431
-0.28229011196384135
-0.08482679107712812
-0.16942087341227166
-0.3449932895009706
-0.30786193313332977
-0.3070696616387131
-0.3297886041819562
-0.3013699138833848
-0.37972516153933406
-0.3990790693227883
-0.314452660344587
-0.2609763238031253
-0.3001035030690586
-0.29586932337294997
-0.250510914548995
-0.47841463959064684
-0.23667551249774402
-0.3719091779052449
-0.5411705178350852
-0.47395153785665656
-0.6094334832354815
-0.364789906336292
-0.41020458214136035
-0.4081198365427367
-0.6959857099869974
-0.33649818747437654
-0.32944269569497187
-0.5422707648635806
-0.4427230258610714
-0.457865961884071
-0.587232181041424
-0.6641756387165642
-0.5249323247448069
-0.47958329966677565
-0.6019901191956545
-0.5315023090323706
-0.7053994276892701
-0.5636413061126095
-0.5926212932715347
-0.6811399052837558
-0.701667674870452
-0.6792288897008056
-0.6178898773597007
-0.49762862467709285
-0.5284745063290606
-0.5155227446273116
-0.7997937032990308
-0.6543624466093709
-0.7934900391136461
-0.6003501557721218
-0.6827067124366692
-0.5767922701388994
-0.6211262908495427
-0.7794812738887456
-0.7197387253661036
-0.7245943546398506
-0.6353759245082082
-0.8243936054464777
-0.7501679546240182
-0.7789116348006855
-0.6689246653409753
-0.8307231059600723
-0.6244995545589098
-0.6857859518006245
-0.8256501058031409
-0.8000841314176234
-0.7757970381973798
-0.7163882569572376
-0.45760550924530463
-0.6697440689737548
-0.6342932738254451
-0.6882000691227329
-0.6060957841498802
-0.4885559092266711
-0.6446898387131174
-0.6940127850493956
-0.5147650465010039
-0.7939381815640302
-0.6852073708062756
-0.3912096873447237
-0.46858494640056103
-0.6755649211233016
-0.5183173171850508
-0.564570213010009
-0.4443258268369016
-0.5920524062647763
-0.420122972982076
-0.5047870375643883
-0.4450228268854749
-0.24559498758604925
-0.35975831521202695
-0.3853866517991438
-0.2147163473958764
-0.3172864906506574
-0.29919250959862737
-0.42557936286819853
-0.26293564828633353
-0.2789698420348549
-0.034659353777825835
-0.3273352431430888
-0.23429553175647982
-0.23403046477925393
-0.06555607967623549
-0.1177897080444989
-0.1832655401604714
-0.14752452507941005
0.036358883029749794
-0.18261626419074722
-0.08428831286386065
0.051275163067933956
0.001179612518259121
-0.09606611388190556
-0.03703626928361881
0.13103307798129177
-0.009652444226822834
-0.014767766459237636
0.05698145155612007
0.20580470078482505
0.12283810098716136
0.3104635650432342
0.1983733499859779
0.3089822489192724
0.16663912458366187
0.2786566972296476
0.46770201236571374
0.3706572240804974
0.4722358176794834
0.38051388332063
0.4572159711657591
0.45818650834346775
0.3567326829172857
0.5586904500796261
0.5417948334236194
0.46456943521359706
0.5392953990706353
0.4128272837835314
0.2718691181847174
0.4553645462147171
0.4306695731624162
0.3146848096515853
0.4955702190402747
0.5698517852172655
0.5412892733494706
0.6060624303443869
0.6432395241063695
0.6470487085857015
0.7272753595898082
0.6286025643997147
0.6247696900146724
0.7398266100194024
0.5187704368041102
0.7517471383630889
0.642605903634674
0.6199463413268594
0.5378641494719982
0.6254022483137782
0.569153705629743
0.6748829094132841
0.795716221529625
0.5986867774602159
0.6949687306619056
0.6424975774865461
0.7878302177964357
0.7034941339909017
0.6979738128018755
0.680143336670323
0.7250947706195248
0.7441221326189523
0.6629456668774492
0.6703056590782834
0.7578530725004904
0.6444549025766033
0.6547524323275732
0.4778351895436441
0.5926673591549844
0.6903841270716955
0.6256232396075372
0.7199839350266175
0.727572843639197
0.581807234243521
0.7097406693356662
0.5010976544578014
0.6223959548464763
0.6453562807814757
0.5352210292055735
0.5913972959129764
0.4171271367831162
0.5504931215514866
0.4185445841277533
0.6515551243371229
0.4658254798476808
0.4013540082559405
0.4926463958680746
0.525539220584398
0.5718591270757434
0.45534758361813155
0.4523779152295605
0.5480667866527191
0.5376053519265017
0.5258950576967839
0.3036350343320456
0.5385647562447056
0.5819779692486536
0.26749234250436693
0.32506742165539965
0.19604714497283143
0.10512158624942858
0.17056440867767605
0.32796852868283155
0.3557636162196064
0.28058815213261956
0.24018660578599094
0.4020847988146496
0.28554668692108237
0.3122037755592443
0.23826849354974644
0.3378253219097123
0.3030908210043725
0.17167422831384305
0.3116946079926322
0.1410372971861253
0.06291403968504486
0.3455121226828587
0.11784724043576145
0.21621838534967222
0.14080092795064278
-0.017954714467108723
0.12732756395561462
0.20659926068224344
-0.034493265252334177
0.09857875180486061
0.12539032487505386
-0.11428833893294901
0.03651274732776506
-0.0939039912285341
0.16040607089335038
0.21799693374644186
0.07828744782363921
0.10117950768041882
0.22913064144117917
0.0399776443226892
0.06837679204827461
0.00458622829151821
0.023324036332830284
0.12173257886577436
0.17537981958269017
0.06068556403043898
-0.04879573667862466
0.05411439704747677
-0.0074965700219628666
-0.24122726832337
-0.025068116753038917
0.14458887719587557
0.10048351777449292
0.056466928938642684
